titre                                                                   
SP        RZINDO                                                      STO-3G              
Number of atoms                            I               12
Info1-9                                    I   N=           9
          20          19           0           0           0         110
           1         108         590
Charge                                     I                0
Multiplicity                               I                1
Number of electrons                        I               40
Number of alpha electrons                  I               20
Number of beta electrons                   I               20
Number of basis functions                  I               36
Number of independent functions            I               36
Number of point charges in /Mol/           I                0
Number of translation vectors              I                0
Atomic numbers                             I   N=          12
           8           6           6           6           6           6
           6           8           1           1           1           1
Nuclear charges                            R   N=          12
  6.00000000E+00  4.00000000E+00  4.00000000E+00  4.00000000E+00  4.00000000E+00
  4.00000000E+00  4.00000000E+00  6.00000000E+00  1.00000000E+00  1.00000000E+00
  1.00000000E+00  1.00000000E+00
Current cartesian coordinates              R   N=          36
  5.04578397E+00 -1.06482299E-04  2.51913151E-05  2.73098109E+00  4.53838841E-05
  1.73166803E-04  1.26908258E+00  2.39870780E+00 -8.80297209E-05  1.26909526E+00
 -2.39845213E+00 -1.67480486E-04 -1.26899947E+00  2.39851503E+00  1.11536522E-04
 -1.26898679E+00 -2.39864490E+00  3.20857568E-05 -2.73105311E+00 -6.74788659E-05
 -2.47226620E-04 -5.04584707E+00  2.83449970E-05  8.09994069E-05  2.38055602E+00
  4.12486930E+00 -2.53173302E-04  2.38045970E+00 -4.12474510E+00  5.09001267E-05
 -2.38060923E+00  4.12482617E+00  1.09069845E-04 -2.38061911E+00 -4.12494744E+00
  3.59364024E-04
Force Field                                I                0
Int Atom Types                             I   N=          12
           0           0           0           0           0           0
           0           0           0           0           0           0
MM charges                                 R   N=          12
  0.00000000E+00  0.00000000E+00  0.00000000E+00  0.00000000E+00  0.00000000E+00
  0.00000000E+00  0.00000000E+00  0.00000000E+00  0.00000000E+00  0.00000000E+00
  0.00000000E+00  0.00000000E+00
Integer atomic weights                     I   N=          12
          16          12          12          12          12          12
          12          16           1           1           1           1
Real atomic weights                        R   N=          12
  1.59949146E+01  1.20000000E+01  1.20000000E+01  1.20000000E+01  1.20000000E+01
  1.20000000E+01  1.20000000E+01  1.59949146E+01  1.00782504E+00  1.00782504E+00
  1.00782504E+00  1.00782504E+00
Atom fragment info                         I   N=          12
           0           0           0           0           0           0
           0           0           0           0           0           0
Atom residue num                           I   N=          12
           0           0           0           0           0           0
           0           0           0           0           0           0
Nuclear spins                              I   N=          12
           0           0           0           0           0           0
           0           0           1           1           1           1
Nuclear ZEff                               R   N=          12
 -6.00000000E+00 -3.90000000E+00 -3.90000000E+00 -3.90000000E+00 -3.90000000E+00
 -3.90000000E+00 -3.90000000E+00 -6.00000000E+00 -1.00000000E+00 -1.00000000E+00
 -1.00000000E+00 -1.00000000E+00
Nuclear ZNuc                               R   N=          12
  8.00000000E+00  6.00000000E+00  6.00000000E+00  6.00000000E+00  6.00000000E+00
  6.00000000E+00  6.00000000E+00  8.00000000E+00  1.00000000E+00  1.00000000E+00
  1.00000000E+00  1.00000000E+00
Nuclear QMom                               R   N=          12
  0.00000000E+00  0.00000000E+00  0.00000000E+00  0.00000000E+00  0.00000000E+00
  0.00000000E+00  0.00000000E+00  0.00000000E+00  0.00000000E+00  0.00000000E+00
  0.00000000E+00  0.00000000E+00
Nuclear GFac                               R   N=          12
  0.00000000E+00  0.00000000E+00  0.00000000E+00  0.00000000E+00  0.00000000E+00
  0.00000000E+00  0.00000000E+00  0.00000000E+00  2.79284600E+00  2.79284600E+00
  2.79284600E+00  2.79284600E+00
MicOpt                                     I   N=          12
          -1          -1          -1          -1          -1          -1
          -1          -1          -1          -1          -1          -1
Number of contracted shells                I               20
Number of primitive shells                 I              120
Pure/Cartesian d shells                    I                0
Pure/Cartesian f shells                    I                0
Highest angular momentum                   I                1
Largest degree of contraction              I                6
Shell types                                I   N=          20
           0           1           0           1           0           1
           0           1           0           1           0           1
           0           1           0           1           0           0
           0           0
Number of primitives per shell             I   N=          20
           6           6           6           6           6           6
           6           6           6           6           6           6
           6           6           6           6           6           6
           6           6
Shell to atom map                          I   N=          20
           1           1           2           2           3           3
           4           4           5           5           6           6
           7           7           8           8           9          10
          11          12
Primitive exponents                        R   N=         120
  1.43286984E+02  2.62773760E+01  7.38450955E+00  1.05600126E+00  4.79278319E-01
  2.28565122E-01  3.03720473E+01  7.92041230E+00  2.83399899E+00  1.18466575E+00
  5.41709880E-01  2.56101318E-01  7.31056039E+01  1.34068245E+01  3.76760691E+00
  5.38776153E-01  2.44529755E-01  1.16614858E-01  1.54959425E+01  4.04102668E+00
  1.44591785E+00  6.04421300E-01  2.76382592E-01  1.30663938E-01  7.31056039E+01
  1.34068245E+01  3.76760691E+00  5.38776153E-01  2.44529755E-01  1.16614858E-01
  1.54959425E+01  4.04102668E+00  1.44591785E+00  6.04421300E-01  2.76382592E-01
  1.30663938E-01  7.31056039E+01  1.34068245E+01  3.76760691E+00  5.38776153E-01
  2.44529755E-01  1.16614858E-01  1.54959425E+01  4.04102668E+00  1.44591785E+00
  6.04421300E-01  2.76382592E-01  1.30663938E-01  7.31056039E+01  1.34068245E+01
  3.76760691E+00  5.38776153E-01  2.44529755E-01  1.16614858E-01  1.54959425E+01
  4.04102668E+00  1.44591785E+00  6.04421300E-01  2.76382592E-01  1.30663938E-01
  7.31056039E+01  1.34068245E+01  3.76760691E+00  5.38776153E-01  2.44529755E-01
  1.16614858E-01  1.54959425E+01  4.04102668E+00  1.44591785E+00  6.04421300E-01
  2.76382592E-01  1.30663938E-01  7.31056039E+01  1.34068245E+01  3.76760691E+00
  5.38776153E-01  2.44529755E-01  1.16614858E-01  1.54959425E+01  4.04102668E+00
  1.44591785E+00  6.04421300E-01  2.76382592E-01  1.30663938E-01  1.43286984E+02
  2.62773760E+01  7.38450955E+00  1.05600126E+00  4.79278319E-01  2.28565122E-01
  3.03720473E+01  7.92041230E+00  2.83399899E+00  1.18466575E+00  5.41709880E-01
  2.56101318E-01  3.32683653E+01  6.09971837E+00  1.70648139E+00  5.86222413E-01
  2.27647318E-01  9.37577369E-02  3.32683653E+01  6.09971837E+00  1.70648139E+00
  5.86222413E-01  2.27647318E-01  9.37577369E-02  3.32683653E+01  6.09971837E+00
  1.70648139E+00  5.86222413E-01  2.27647318E-01  9.37577369E-02  3.32683653E+01
  6.09971837E+00  1.70648139E+00  5.86222413E-01  2.27647318E-01  9.37577369E-02
Contraction coefficients                   R   N=         120
 -4.15127782E-03 -2.06702415E-02 -5.15030334E-02  3.34627117E-01  5.62106130E-01
  1.71299470E-01  7.92423365E-03  5.14410483E-02  1.89840006E-01  4.04986319E-01
  4.01236286E-01  1.05185519E-01 -4.15127782E-03 -2.06702415E-02 -5.15030334E-02
  3.34627117E-01  5.62106130E-01  1.71299470E-01  7.92423365E-03  5.14410483E-02
  1.89840006E-01  4.04986319E-01  4.01236286E-01  1.05185519E-01 -4.15127782E-03
 -2.06702415E-02 -5.15030334E-02  3.34627117E-01  5.62106130E-01  1.71299470E-01
  7.92423365E-03  5.14410483E-02  1.89840006E-01  4.04986319E-01  4.01236286E-01
  1.05185519E-01 -4.15127782E-03 -2.06702415E-02 -5.15030334E-02  3.34627117E-01
  5.62106130E-01  1.71299470E-01  7.92423365E-03  5.14410483E-02  1.89840006E-01
  4.04986319E-01  4.01236286E-01  1.05185519E-01 -4.15127782E-03 -2.06702415E-02
 -5.15030334E-02  3.34627117E-01  5.62106130E-01  1.71299470E-01  7.92423365E-03
  5.14410483E-02  1.89840006E-01  4.04986319E-01  4.01236286E-01  1.05185519E-01
 -4.15127782E-03 -2.06702415E-02 -5.15030334E-02  3.34627117E-01  5.62106130E-01
  1.71299470E-01  7.92423365E-03  5.14410483E-02  1.89840006E-01  4.04986319E-01
  4.01236286E-01  1.05185519E-01 -4.15127782E-03 -2.06702415E-02 -5.15030334E-02
  3.34627117E-01  5.62106130E-01  1.71299470E-01  7.92423365E-03  5.14410483E-02
  1.89840006E-01  4.04986319E-01  4.01236286E-01  1.05185519E-01 -4.15127782E-03
 -2.06702415E-02 -5.15030334E-02  3.34627117E-01  5.62106130E-01  1.71299470E-01
  7.92423365E-03  5.14410483E-02  1.89840006E-01  4.04986319E-01  4.01236286E-01
  1.05185519E-01  9.16359628E-03  4.93614929E-02  1.68538305E-01  3.70562800E-01
  4.16491530E-01  1.30334084E-01  9.16359628E-03  4.93614929E-02  1.68538305E-01
  3.70562800E-01  4.16491530E-01  1.30334084E-01  9.16359628E-03  4.93614929E-02
  1.68538305E-01  3.70562800E-01  4.16491530E-01  1.30334084E-01  9.16359628E-03
  4.93614929E-02  1.68538305E-01  3.70562800E-01  4.16491530E-01  1.30334084E-01
Coordinates of each shell                  R   N=          60
  5.04578397E+00 -1.06482299E-04  2.51913151E-05  5.04578397E+00 -1.06482299E-04
  2.51913151E-05  2.73098109E+00  4.53838841E-05  1.73166803E-04  2.73098109E+00
  4.53838841E-05  1.73166803E-04  1.26908258E+00  2.39870780E+00 -8.80297209E-05
  1.26908258E+00  2.39870780E+00 -8.80297209E-05  1.26909526E+00 -2.39845213E+00
 -1.67480486E-04  1.26909526E+00 -2.39845213E+00 -1.67480486E-04 -1.26899947E+00
  2.39851503E+00  1.11536522E-04 -1.26899947E+00  2.39851503E+00  1.11536522E-04
 -1.26898679E+00 -2.39864490E+00  3.20857568E-05 -1.26898679E+00 -2.39864490E+00
  3.20857568E-05 -2.73105311E+00 -6.74788659E-05 -2.47226620E-04 -2.73105311E+00
 -6.74788659E-05 -2.47226620E-04 -5.04584707E+00  2.83449970E-05  8.09994069E-05
 -5.04584707E+00  2.83449970E-05  8.09994069E-05  2.38055602E+00  4.12486930E+00
 -2.53173302E-04  2.38045970E+00 -4.12474510E+00  5.09001267E-05 -2.38060923E+00
  4.12482617E+00  1.09069845E-04 -2.38061911E+00 -4.12494744E+00  3.59364024E-04
Constraint Structure                       R   N=          36
  5.04578397E+00 -1.06482299E-04  2.51913151E-05  2.73098109E+00  4.53838841E-05
  1.73166803E-04  1.26908258E+00  2.39870780E+00 -8.80297209E-05  1.26909526E+00
 -2.39845213E+00 -1.67480486E-04 -1.26899947E+00  2.39851503E+00  1.11536522E-04
 -1.26898679E+00 -2.39864490E+00  3.20857568E-05 -2.73105311E+00 -6.74788659E-05
 -2.47226620E-04 -5.04584707E+00  2.83449970E-05  8.09994069E-05  2.38055602E+00
  4.12486930E+00 -2.53173302E-04  2.38045970E+00 -4.12474510E+00  5.09001267E-05
 -2.38060923E+00  4.12482617E+00  1.09069845E-04 -2.38061911E+00 -4.12494744E+00
  3.59364024E-04
Num ILSW                                   I              100
ILSW                                       I   N=         100
           0           0           0           0           2           0
           0           0           0           0           0          -1
           0           0           0           0           0           0
           0           0           1           0           0           0
           1           0           0           0           0           0
           0           0      100000           0          -1           0
           0           0           0           0           0           0
           0           0           0           5           0           0
           0           0           1           0           0           0
           0           0           4          41           0           0
           0           0           0           0           0           0
           0           0           0           0           0           0
           0           0           0           0           0           0
           0           0           0           0           0           0
           0           0           0           0           0           0
           0           0           0           0           0           0
           0           0           0           0
Num RLSW                                   I               41
RLSW                                       R   N=          41
  1.00000000E+00  1.00000000E+00  1.00000000E+00  1.00000000E+00  1.00000000E+00
  0.00000000E+00  0.00000000E+00  1.00000000E+00  0.00000000E+00  0.00000000E+00
  0.00000000E+00  0.00000000E+00  1.00000000E+00  0.00000000E+00  0.00000000E+00
  0.00000000E+00  0.00000000E+00  1.00000000E+00  0.00000000E+00  0.00000000E+00
  0.00000000E+00  0.00000000E+00  1.00000000E+00  0.00000000E+00  0.00000000E+00
  0.00000000E+00  0.00000000E+00  1.00000000E+00  0.00000000E+00  0.00000000E+00
  0.00000000E+00  0.00000000E+00  1.00000000E+00  0.00000000E+00  0.00000000E+00
  0.00000000E+00  0.00000000E+00  0.00000000E+00  1.00000000E+00  1.00000000E+00
  0.00000000E+00
MxBond                                     I                3
NBond                                      I   N=          12
           1           3           3           3           3           3
           3           1           1           1           1           1
IBond                                      I   N=          36
           2           0           0           1           3           4
           2           5           9           2           6          10
           3           7          11           4           7          12
           5           6           8           7           0           0
           3           0           0           4           0           0
           5           0           0           6           0           0
RBond                                      R   N=          36
  2.00000000E+00  0.00000000E+00  0.00000000E+00  2.00000000E+00  1.00000000E+00
  1.00000000E+00  1.00000000E+00  2.00000000E+00  1.00000000E+00  1.00000000E+00
  2.00000000E+00  1.00000000E+00  2.00000000E+00  1.00000000E+00  1.00000000E+00
  2.00000000E+00  1.00000000E+00  1.00000000E+00  1.00000000E+00  1.00000000E+00
  2.00000000E+00  2.00000000E+00  0.00000000E+00  0.00000000E+00  1.00000000E+00
  0.00000000E+00  0.00000000E+00  1.00000000E+00  0.00000000E+00  0.00000000E+00
  1.00000000E+00  0.00000000E+00  0.00000000E+00  1.00000000E+00  0.00000000E+00
  0.00000000E+00
Virial Ratio                               R      8.097200817685724E-01
SCF Energy                                 R     -6.015055261610756E+01
CIS Energy                                 R     -6.006195116586527E+01
Total Energy                               R     -6.006195116586527E+01
Post-SCF wavefunction norm                 R      1.000000000000000E+00
RMS Density                                R      9.057848361291839E-09
External E-field                           R   N=          35
  0.00000000E+00  0.00000000E+00  0.00000000E+00  0.00000000E+00  0.00000000E+00
  0.00000000E+00  0.00000000E+00  0.00000000E+00  0.00000000E+00  0.00000000E+00
  0.00000000E+00  0.00000000E+00  0.00000000E+00  0.00000000E+00  0.00000000E+00
  0.00000000E+00  0.00000000E+00  0.00000000E+00  0.00000000E+00  0.00000000E+00
  0.00000000E+00  0.00000000E+00  0.00000000E+00  0.00000000E+00  0.00000000E+00
  0.00000000E+00  0.00000000E+00  0.00000000E+00  0.00000000E+00  0.00000000E+00
  0.00000000E+00  0.00000000E+00  0.00000000E+00  0.00000000E+00  0.00000000E+00
IOpCl                                      I                0
IROHF                                      I                0
Alpha Orbital Energies                     R   N=          36
 -1.66635059E+00 -1.58908935E+00 -1.44147688E+00 -1.26991352E+00 -1.00096346E+00
 -9.89345506E-01 -9.32586134E-01 -7.43843243E-01 -7.07690104E-01 -6.50518721E-01
 -6.16874619E-01 -5.79086804E-01 -5.67021434E-01 -5.37312915E-01 -5.35781521E-01
 -5.05490299E-01 -3.94616286E-01 -3.92136891E-01 -3.87408568E-01 -3.86425935E-01
 -8.40301366E-02  5.44016944E-03  2.24335456E-02  5.95668638E-02  7.76038913E-02
  9.25042670E-02  1.02610622E-01  1.74871927E-01  1.84561832E-01  2.05934889E-01
  2.92040230E-01  3.23629168E-01  3.46283390E-01  4.04003924E-01  4.30004248E-01
  4.82166761E-01
Alpha MO coefficients                      R   N=        1296
  3.46206924E-01 -1.37889877E-01  3.77952989E-06  4.45823159E-06  4.05782601E-01
  3.26236319E-02 -1.95804928E-05 -2.57032707E-05  2.82568556E-01 -1.98599435E-02
 -9.98132464E-02  8.74867956E-06  2.82602846E-01 -1.98514894E-02  9.98131552E-02
  1.65561081E-05  2.82548780E-01  1.98855523E-02 -9.97929495E-02 -1.28223445E-05
  2.82542162E-01  1.98903087E-02  9.97972893E-02 -5.44164933E-06  4.05664006E-01
 -3.25774541E-02  7.60211339E-06  3.96315254E-05  3.46073070E-01  1.37835657E-01
 -3.28610203E-06 -1.29854757E-05  8.69224071E-02  8.69351799E-02  8.69048618E-02
  8.68995981E-02 -4.98399626E-01  1.84244162E-01 -6.67387677E-06 -8.60304278E-06
 -3.64331284E-01 -1.96360233E-01  2.57106751E-05  2.38488174E-05 -1.03124747E-01
 -8.62772642E-02  4.68952539E-02 -2.18171577E-06 -1.03153641E-01 -8.62976715E-02
 -4.69023166E-02 -5.75250048E-06  1.03205816E-01 -8.62899940E-02 -4.69197040E-02
 -3.01860298E-06  1.03192575E-01 -8.62845133E-02  4.69170449E-02  1.66209667E-07
  3.64456117E-01 -1.96392595E-01  1.31624853E-05  4.25697078E-05  4.98536930E-01
  1.84293404E-01 -5.08926945E-06 -2.19329318E-05 -5.31270622E-02 -5.31380901E-02
  5.31560554E-02  5.31497285E-02  4.15517968E-01 -1.24646033E-01  7.97930258E-06
  1.08756059E-05  1.15336603E-02  3.43170946E-01 -1.71896487E-05  2.32444772E-07
 -2.62663680E-01  1.43537481E-01  6.41676543E-02 -9.35325012E-06 -2.62665097E-01
  1.43562463E-01 -6.41530953E-02 -1.54166808E-05 -2.62671706E-01 -1.43544318E-01
  6.41639483E-02  1.65891007E-05 -2.62681758E-01 -1.43533117E-01 -6.41781963E-02
  1.08266996E-05  1.15162368E-02 -3.43148329E-01  1.48257929E-05  1.45176212E-05
  4.15475757E-01  1.24631544E-01 -4.45877981E-06 -2.28379558E-05 -5.70122580E-02
 -5.70123598E-02 -5.70049577E-02 -5.70069386E-02  4.21418194E-06  5.85949215E-07
  5.37191552E-02 -2.69011494E-07  2.59124244E-05 -3.89601976E-06  2.11508387E-01
  2.45592519E-07  4.19712394E-01 -9.87584494E-02  5.08750295E-02  1.25702515E-05
 -4.19672577E-01  9.87636670E-02  5.09189298E-02 -2.72469974E-05  4.19650841E-01
  9.87942289E-02  5.09119736E-02 -2.05437518E-05 -4.19659272E-01 -9.87819592E-02
  5.08759583E-02  7.13398303E-06 -2.06226644E-05 -8.78405320E-06  2.11455250E-01
  5.21001878E-07  1.38376584E-06  7.76841426E-07  5.37020856E-02 -1.50296298E-07
  1.94246253E-01 -1.94243430E-01  1.94204518E-01 -1.94196648E-01 -3.21144592E-01
 -3.78098687E-02 -4.03914450E-05 -1.29614241E-05  2.76590725E-01 -2.69728925E-01
 -6.45263415E-05 -2.20223717E-05  2.58849257E-01  1.75123295E-01 -6.68833846E-02
  1.01893007E-05  2.58972969E-01  1.75193965E-01  6.68844869E-02  2.20832000E-05
 -2.58857173E-01  1.75167815E-01  6.69654080E-02  1.92942516E-05 -2.58918205E-01
  1.75232120E-01 -6.69743236E-02  9.45158007E-06 -2.76670171E-01 -2.69787334E-01
  5.00143141E-05 -1.24034258E-05  3.21156143E-01 -3.78184758E-02  1.36505964E-05
 -1.53006268E-05  1.44463324E-01  1.44536404E-01 -1.44429053E-01 -1.44476821E-01
  2.52099536E-05 -6.00644095E-06 -1.56137404E-01 -6.91642476E-07 -5.08057088E-05
  1.46016586E-05 -3.52105439E-01 -1.79983357E-06 -2.90414323E-01 -2.12800573E-01
 -1.05570424E-03 -1.02641199E-05  2.90307681E-01  2.12730750E-01 -1.05011112E-03
  2.61444793E-05  2.90457999E-01 -2.12778254E-01  1.04180112E-03 -1.87293563E-05
 -2.90389020E-01  2.12729906E-01  1.08793087E-03  6.38904725E-06  3.82949115E-05
  5.64936453E-05  3.52134448E-01  2.68549144E-06 -6.14886071E-05  1.36843791E-05
  1.56140784E-01  1.07183250E-06 -2.15019432E-01  2.14930400E-01  2.15015941E-01
 -2.14992454E-01 -7.97528612E-02 -3.72412492E-02  9.70088796E-06 -1.01641462E-05
  2.29152459E-01 -1.72950806E-01  1.79284004E-05 -2.67025360E-05 -1.58829259E-01
  6.58091756E-02 -3.44849403E-01  4.44079031E-06 -1.58828116E-01  6.57697230E-02
  3.44880330E-01 -1.31662510E-05 -1.58881725E-01 -6.57290071E-02 -3.44828711E-01
 -4.74235620E-06 -1.58882329E-01 -6.57778114E-02  3.44810881E-01 -2.03187272E-05
  2.29055363E-01  1.72875859E-01 -1.12513082E-05  1.78959659E-05 -7.96573171E-02
  3.72166897E-02 -7.73338168E-06  8.34378493E-06 -2.37593777E-01 -2.37634152E-01
 -2.37624468E-01 -2.37596718E-01  4.35636977E-05  5.61293286E-05  2.74843868E-01
  4.92220288E-06 -2.17443660E-05  2.18031429E-05  3.87837978E-01  6.86977805E-06
 -2.02156615E-02  3.19885185E-01 -1.85067643E-01  2.16313296E-06  2.02494879E-02
 -3.19878094E-01 -1.85147655E-01 -6.45350977E-06 -2.02546119E-02 -3.19845674E-01
 -1.85136286E-01 -7.07273637E-06  2.02185280E-02  3.19915179E-01 -1.85030413E-01
  3.08420523E-06  8.52932734E-06  2.30545904E-05  3.87823166E-01  7.01528414E-06
  3.57839335E-06  1.11029420E-05  2.74824465E-01  5.00980397E-06  5.78756007E-03
 -5.69753005E-03  5.71637645E-03 -5.82864233E-03  3.57243064E-01  3.34820279E-01
 -6.40455013E-06 -2.25565867E-07 -1.95471395E-01 -7.36802680E-02  8.43648009E-06
  1.88501176E-05  8.93540344E-03 -2.88052966E-01 -6.49007380E-02  1.83248733E-05
  8.93928634E-03 -2.88016497E-01  6.48554378E-02 -7.32290618E-06  8.97503920E-03
  2.88047488E-01 -6.48156208E-02 -9.25280759E-06  8.96268185E-03  2.87991495E-01
  6.48813678E-02 -3.29474750E-05 -1.95503244E-01  7.36585736E-02 -4.49760031E-05
 -2.53637418E-05  3.57228431E-01 -3.34814382E-01 -2.84104517E-05  2.20742895E-05
 -1.45205145E-01 -1.45150613E-01 -1.45132221E-01 -1.45156133E-01  2.06296833E-01
  2.81020574E-01 -9.20561635E-05 -4.67818951E-05 -2.56720248E-01 -2.16383409E-02
 -1.39927013E-04 -3.70682067E-05  1.37970895E-01  7.19375807E-02  2.43169927E-01
 -7.38826401E-05  1.37999646E-01  7.17665174E-02 -2.42835960E-01 -4.78642259E-05
 -1.38021766E-01  7.17834654E-02 -2.42878414E-01 -6.83440494E-05 -1.37993060E-01
  7.19534621E-02  2.43199725E-01 -8.59043713E-05  2.56732117E-01 -2.16057882E-02
 -1.14796646E-04 -4.74396458E-05 -2.06267804E-01  2.80988818E-01 -6.18394168E-05
 -7.90652409E-05  2.69915749E-01  2.69628685E-01 -2.69672337E-01 -2.69952454E-01
 -1.70213841E-04 -2.69470586E-04 -7.45352939E-03 -7.80793136E-05  1.01021658E-04
  1.10834931E-04 -1.62309551E-01 -1.04706549E-04 -6.56980628E-02  2.58802582E-01
  2.87919880E-01 -1.11406499E-04  6.55782198E-02 -2.58870263E-01  2.88007511E-01
 -8.66401274E-05 -6.56047528E-02 -2.58882184E-01  2.87927030E-01 -4.53923677E-05
  6.57215391E-02  2.58777347E-01  2.87837006E-01 -1.47290147E-04 -1.13736896E-04
  1.39756434E-04 -1.62215478E-01 -1.01870111E-04  2.04680332E-04 -3.21100749E-04
 -7.39977773E-03 -7.56662889E-05  2.87358243E-01 -2.87525510E-01  2.87465887E-01
 -2.87284024E-01  2.44704497E-01  4.56472709E-01 -1.46425341E-05  1.57254555E-04
  6.51778399E-02 -3.34693100E-01 -2.87149767E-05  2.16576231E-04  5.02656394E-03
 -7.17647773E-04 -1.94076610E-01  2.18761852E-04  5.10156216E-03 -9.31350596E-04
  1.94256247E-01  2.03547601E-04 -5.09262462E-03 -8.30324661E-04  1.94272492E-01
  2.22881243E-04 -5.02206580E-03 -6.15950673E-04 -1.94090528E-01  2.32062137E-04
 -6.51695150E-02 -3.34807690E-01 -4.13914204E-05  2.48437023E-04 -2.44794823E-01
  4.56649606E-01 -1.13429149E-05  1.29328010E-04 -1.41133934E-01 -1.41329547E-01
  1.41299980E-01  1.41103572E-01 -1.09530048E-04 -1.81356103E-04  1.52229922E-06
  3.77371717E-01 -1.77540756E-05  1.70815795E-04 -4.27653550E-05  4.10686571E-01
 -2.38968264E-05  9.40623761E-05  2.49823788E-04  3.07366516E-01 -1.11435049E-05
 -5.11845152E-05 -1.02875932E-04  3.07395387E-01  7.08774803E-07 -6.09647062E-05
 -1.09233717E-04  3.07361236E-01  1.13485634E-05  8.33814826E-05  2.82031916E-04
  3.07369217E-01 -1.47441620E-06  2.11547690E-04 -5.79559694E-05  4.10643748E-01
  1.24301653E-04 -1.77706578E-04 -1.38269106E-05  3.77340073E-01  1.97312242E-04
  7.51438230E-05 -5.09729525E-05 -1.99660234E-04  1.66312681E-01  4.11094317E-01
 -3.65125768E-03 -2.63871143E-04  9.17997165E-03 -2.80927644E-01 -2.88649793E-03
 -1.97289169E-04 -1.37878940E-02  3.03365083E-01  1.77673518E-03 -8.90199576E-05
 -1.52253107E-02  3.03101467E-01  3.79451692E-03 -2.79193541E-05 -1.52378939E-02
 -3.03073046E-01 -3.75013573E-03  1.56904932E-05 -1.38189033E-02 -3.03382547E-01
 -1.88443237E-03  7.43878863E-05  9.14041565E-03  2.80791645E-01  2.90690437E-03
  1.52873673E-04  1.66240514E-01 -4.10923977E-01  3.62057169E-03  2.77098660E-04
  1.44080535E-01  1.39003352E-01  1.39036431E-01  1.44166436E-01 -1.65438720E-03
 -4.16377651E-03 -3.56362312E-01 -7.46556043E-05 -1.26290860E-04  2.82978254E-03
 -2.86587082E-01 -6.44574086E-05  7.14313164E-02  1.10081750E-02  2.76268432E-01
 -1.17300939E-04 -7.11262206E-02 -1.72002272E-02  2.76264620E-01  7.08325156E-05
 -7.11117873E-02  1.72466495E-02 -2.76330721E-01 -7.60441115E-05  7.14378616E-02
 -1.10589010E-02 -2.76356830E-01  1.44875542E-04 -1.24181972E-04 -2.83072410E-03
  2.86655551E-01  8.59042967E-05 -1.65355274E-03  4.14680404E-03  3.56421190E-01
  9.68740300E-05  2.51027865E-01 -2.53930901E-01 -2.53993304E-01  2.51127670E-01
 -5.06463534E-05 -2.12270936E-04  7.51360837E-05 -5.53628244E-01 -8.31520959E-05
  1.30099236E-04  4.99658581E-05 -4.18440141E-01  7.11857559E-06 -1.32838490E-04
 -4.82831585E-05 -9.57725886E-02  4.36634796E-05 -1.20144381E-04 -4.10240492E-05
 -9.58053499E-02  3.75226858E-05  1.23617747E-04  2.02617624E-05  9.57931127E-02
  1.23143216E-06  1.32670215E-04  6.50261688E-05  9.57756348E-02 -9.14746073E-05
 -1.00015033E-04 -4.91649356E-05  4.18479520E-01 -4.83549100E-05  2.54382669E-04
 -7.52368466E-05  5.53694763E-01 -9.27863264E-05 -1.64258351E-05 -2.84205938E-05
 -1.02132138E-04  1.58114738E-06  1.75041429E-05 -6.89802836E-04 -3.98989228E-05
 -1.59137215E-06 -8.42864995E-06  2.63649683E-04 -2.16518556E-06  1.06482417E-04
  5.02992057E-06 -1.82645676E-04  5.00061057E-01 -6.29807538E-05  6.46629814E-05
 -2.15195659E-04 -4.99940447E-01 -1.33707110E-04  1.43178902E-04  2.92489745E-04
  5.00047920E-01  1.68857700E-04 -2.09780737E-04  2.68929775E-04 -4.99947036E-01
  1.23098470E-06  1.02510303E-05 -4.39876908E-04 -1.80400094E-05  1.66116274E-06
 -1.82808689E-05  1.52258713E-03 -6.96648446E-05 -1.66382664E-04  1.56856709E-04
  1.39006843E-04 -1.49497883E-04 -3.37533103E-07  5.63692302E-05  6.47139483E-01
  1.08455416E-04 -6.26500811E-06 -1.36709134E-05 -1.46055414E-01  9.78478660E-06
 -4.42249431E-02 -1.39275945E-01  9.12647055E-02 -3.95044017E-04  4.42531791E-02
  1.39277260E-01  9.12418753E-02  2.58582616E-04 -4.43161040E-02  1.39294964E-01
  9.14096326E-02 -3.85924416E-04  4.42850393E-02 -1.39312678E-01  9.14192814E-02
  2.48701406E-04  1.04007640E-05 -2.08362544E-07 -1.46233872E-01  9.43335723E-06
  1.06221047E-06  2.74533306E-05  6.47573459E-01  1.08905285E-04 -9.09954126E-03
  9.12206268E-03 -9.01385243E-03  8.99968808E-03 -3.07269718E-06  5.66360533E-05
  4.16153162E-05  4.93894120E-01  2.34085633E-05 -1.19568258E-05 -2.70060134E-05
  7.58205074E-02  1.28566356E-05 -1.53016840E-05 -2.34297452E-05 -3.53730184E-01
  6.93268615E-05 -1.11115803E-05  5.54669112E-05 -3.53859780E-01 -7.85485104E-07
 -4.27429160E-05 -3.31814709E-05 -3.53733845E-01 -5.85114178E-05 -8.42064175E-06
 -1.47388225E-04 -3.53873573E-01 -2.72389363E-05 -1.19326774E-05  1.01962440E-04
  7.58030419E-02  2.64959653E-06  1.00111725E-04 -3.14583710E-04  4.93839701E-01
  5.83901494E-06 -6.12248926E-05 -1.46756623E-05  5.74211289E-05 -3.38967108E-07
  4.24786783E-05  5.84385844E-01 -1.19529441E-04 -9.46812940E-06 -9.73553249E-06
 -2.17674393E-01 -2.66171482E-05 -8.98371507E-02 -3.04616297E-02  1.82025311E-01
  9.76940192E-04  8.98465966E-02  3.04543925E-02  1.82008053E-01 -7.84034473E-04
  8.98209808E-02 -3.03430582E-02 -1.81962399E-01  9.80623153E-04 -8.98118044E-02
  3.03488448E-02 -1.81965062E-01 -7.43155620E-04 -5.31252169E-06  6.45085096E-06
  2.17568828E-01 -1.69562552E-05 -1.70660504E-07 -2.72436009E-05 -5.83876100E-01
 -1.78264821E-04  1.16612318E-01 -1.16602692E-01 -1.16635811E-01  1.16644383E-01
  6.23297345E-06 -1.18525295E-05 -1.92537917E-05  3.94446636E-01 -1.09854673E-04
  3.18056133E-05  2.72907792E-05 -3.76025579E-01  3.33167259E-05  1.80257503E-05
 -6.15056873E-05 -3.18585185E-01  6.78254705E-05  2.87649456E-05  2.06244242E-05
 -3.18608942E-01  5.76868149E-05 -2.40229935E-05 -4.85036342E-05  3.18603813E-01
  2.59090768E-05 -1.75901695E-05  8.51109459E-05  3.18626696E-01 -1.17111420E-04
 -3.18057229E-06 -2.66104364E-05  3.76024789E-01  6.27464426E-06 -2.17331161E-05
  1.97529762E-05 -3.94439322E-01 -3.38999372E-06 -9.05525937E-06 -4.83564265E-06
 -7.48858893E-07  5.89619432E-06 -1.64976618E-05 -1.37653875E-05  8.21699163E-05
 -5.61228976E-05  2.19830625E-05  5.26264892E-05 -1.22482835E-04  1.32848484E-05
 -5.63323608E-08  3.02616969E-05  5.00056637E-01  1.40226236E-04  1.92466410E-05
  1.67521229E-05 -4.99939990E-01 -1.01747042E-04  1.20449702E-05  5.29399848E-05
 -4.99978936E-01 -4.37818674E-05 -9.55230883E-07  6.09994483E-05  5.00024323E-01
  5.48815943E-05  2.16801522E-05  2.23988525E-05 -1.24274488E-04 -5.96776166E-06
 -1.72440563E-05  4.28200296E-06  8.20465078E-05 -1.47179512E-05 -7.73051973E-05
  5.46592358E-05  2.91315386E-05 -2.35396858E-05  5.07300774E-05  6.63291299E-06
 -3.37178313E-01  1.97268367E-04 -3.75093143E-05 -2.74656849E-06  5.70598277E-01
 -1.26571162E-04 -1.76772341E-05  5.76437120E-05 -1.74073949E-01 -1.05980229E-04
  2.05592454E-06 -7.14120816E-05 -1.74311585E-01  1.38613955E-04 -3.23476697E-05
 -8.61574714E-05 -1.74324835E-01  1.54509435E-04 -5.20588406E-05  7.54597052E-05
 -1.74113511E-01 -2.66720522E-04 -1.63834300E-05 -4.42057005E-06  5.70640542E-01
  3.17323086E-05  4.65383614E-05  7.43789114E-06 -3.37204094E-01  6.90296074E-05
  4.70347769E-05 -6.00649975E-05 -7.89706334E-05 -4.60066274E-02  1.15445223E-01
 -9.88913812E-06  1.90281453E-04  3.39274272E-01 -1.07366397E-01  6.25772074E-06
 -4.13993825E-04 -3.56850086E-01  1.65953575E-02  9.85639742E-02  2.16233226E-04
 -3.56825018E-01  1.66168071E-02 -9.85406363E-02  2.65314032E-05  3.56908947E-01
  1.65374460E-02 -9.85731509E-02 -1.70022730E-04  3.56895956E-01  1.65088972E-02
  9.85756658E-02  1.35442016E-05 -3.39379898E-01 -1.07391359E-01 -1.67067401E-05
 -1.83433767E-04  4.60243517E-02  1.15486234E-01  1.00107057E-06  6.99581113E-05
  2.03932790E-01  2.03897520E-01 -2.03964403E-01 -2.03981396E-01 -6.32249366E-05
  1.39193889E-04 -1.94017964E-05 -1.94621138E-01  4.39769045E-04 -8.19448398E-05
  6.80473233E-05  4.28389475E-01 -3.51103951E-04 -1.25364310E-04  1.10736718E-04
 -3.73244073E-01 -1.35476556E-04 -1.47694802E-04 -1.64088126E-04 -3.73276331E-01
  5.22029106E-05  1.71589355E-04  9.26626438E-05  3.73228417E-01 -1.57871485E-04
  1.43262351E-04 -4.50486640E-05  3.73247964E-01  2.65455233E-04  1.65931837E-07
 -6.62205028E-05 -4.28339604E-01 -3.88999586E-05 -6.69216616E-05  1.91134213E-05
  1.94601479E-01  1.95898746E-04  5.40577790E-05 -4.99379860E-05  8.52959680E-05
 -6.52058626E-02  1.44895316E-01 -1.26253649E-05  1.40640922E-04  4.39677843E-01
 -9.00211078E-02 -1.25306286E-05 -3.87418509E-04 -2.37854680E-01 -2.01521724E-01
  1.48069465E-01  1.96469996E-04 -2.37942364E-01 -2.01478696E-01 -1.48014707E-01
  1.58140613E-04 -2.37839248E-01  2.01483967E-01  1.48004996E-01 -1.90697212E-04
 -2.37750600E-01  2.01519321E-01 -1.48025438E-01 -2.20410063E-04  4.39577297E-01
  8.99974460E-02  3.38051297E-05  4.69743138E-04 -6.51971239E-02 -1.44878605E-01
 -1.39098957E-07 -1.63711317E-04  1.32685086E-01  1.32739519E-01  1.32677775E-01
  1.32631642E-01  4.53335769E-06 -3.59559945E-06  7.98366342E-02 -4.19600307E-05
 -2.35570092E-05 -1.61853326E-05 -2.63174853E-01  9.73731854E-05  3.79495094E-01
 -8.37909181E-02  4.37351527E-02 -4.72023102E-05 -3.79448845E-01  8.38562661E-02
  4.37575011E-02 -1.94557067E-04 -3.79485566E-01 -8.37758500E-02 -4.37840073E-02
  1.43837260E-04  3.79571203E-01  8.37166222E-02 -4.37733745E-02  9.04755586E-05
 -3.85242745E-05  4.55860970E-06  2.63237409E-01 -9.47995785E-05  6.01089057E-06
  8.84576465E-06 -7.98473390E-02  4.08250785E-05 -2.43342762E-01  2.43269641E-01
  2.43340343E-01 -2.43440573E-01  1.03395495E-05 -2.74346693E-05  3.26178212E-02
 -5.05582684E-06 -2.73712010E-05 -1.40035186E-05 -2.44165453E-01  9.08916128E-06
  2.44456084E-01  2.17789112E-01  1.08262109E-01  2.23387183E-05 -2.44531546E-01
 -2.17854570E-01  1.08390026E-01 -8.25695309E-05  2.44345102E-01 -2.17851969E-01
  1.08276302E-01 -5.28327632E-05 -2.44408136E-01  2.17882071E-01  1.08435070E-01
  5.06924957E-06 -7.58439717E-05 -2.33200947E-06 -2.44079004E-01  6.62054356E-06
  1.98811195E-05  4.78368486E-05  3.26067351E-02 -4.20211987E-06 -3.17308410E-01
  3.17485358E-01 -3.17261494E-01  3.17450756E-01  5.89540039E-02 -1.43249877E-01
  6.15087814E-06 -6.60241491E-06 -2.07017380E-01 -1.91129563E-02  3.47293419E-05
  6.36279772E-05 -1.28104786E-01 -9.48129807E-02 -2.62549269E-01  2.05663550E-05
 -1.28008854E-01 -9.47491183E-02  2.62511369E-01 -3.45818470E-05 -1.28243147E-01
  9.47928151E-02 -2.63021175E-01  5.22710557E-06 -1.28078675E-01  9.46198993E-02
  2.62944410E-01 -3.80897878E-05 -2.07388176E-01  1.91207848E-02  8.36774616E-05
 -8.35126327E-05  5.90336229E-02  1.43422720E-01 -1.69016180E-05  2.58592761E-07
  3.49048954E-01  3.48944750E-01  3.49428341E-01  3.49194501E-01 -7.12702742E-02
  1.50832346E-01 -2.15389499E-05  1.07542596E-05  2.92845496E-01  3.30248124E-02
  4.94721911E-05 -1.01893645E-04  1.11253556E-01 -8.84249636E-02  3.35113557E-01
 -6.15729701E-06  1.11258052E-01 -8.83732690E-02 -3.35074003E-01  4.04708468E-05
 -1.11105017E-01 -8.84971401E-02 -3.34744872E-01  1.65946452E-05 -1.11075674E-01
 -8.85293992E-02  3.34772718E-01 -2.48636908E-05 -2.92578914E-01  3.29809893E-02
  4.18172982E-05 -1.24037525E-04  7.11928689E-02  1.50652239E-01 -1.49422079E-05
  1.86900148E-06 -2.45906781E-01 -2.45887231E-01  2.45449297E-01  2.45462510E-01
  1.21050279E-05 -2.05510606E-05  3.10797469E-02  1.69089844E-06 -1.18503034E-05
 -4.32177946E-05 -2.15491522E-01 -7.11070870E-06  8.08707415E-02 -2.01024762E-01
 -3.36787845E-01  4.42085950E-05 -8.09309885E-02  2.01098520E-01 -3.36781494E-01
 -1.01687844E-05 -8.09744511E-02 -2.00968573E-01  3.36914195E-01  3.30317017E-05
  8.09789073E-02  2.01046240E-01  3.36973345E-01 -6.27205809E-05  5.90835799E-06
  2.46222743E-06  2.15748352E-01  6.70104116E-06 -2.61321711E-06 -5.98403901E-06
 -3.11052763E-02 -1.48600801E-06  2.56540231E-01 -2.56541380E-01 -2.56563263E-01
  2.56627289E-01  9.85884713E-02 -1.86437506E-01  4.26148051E-05  1.53259168E-05
 -1.36032537E-01 -2.20639964E-01 -2.55226327E-04  2.87259421E-05 -1.13045397E-01
  3.66952776E-01  1.30853745E-01 -4.42787981E-05 -1.13152270E-01  3.66831109E-01
 -1.31191530E-01 -1.97247023E-05  1.13185630E-01  3.66858336E-01 -1.31228660E-01
 -3.59410231E-05  1.13051079E-01  3.66906272E-01  1.30762671E-01 -5.78191362E-05
  1.36059549E-01 -2.20651256E-01 -3.09536973E-04  5.13215556E-05 -9.86015209E-02
 -1.86462924E-01  4.12296106E-05  3.00430972E-05 -1.71977081E-01 -1.72139762E-01
  1.72156099E-01  1.71889241E-01  7.96290650E-05 -1.52079376E-04 -3.73117693E-02
 -8.03524647E-07 -1.22146124E-04 -1.53454383E-04  4.44512972E-01  8.43827984E-06
 -8.63906007E-02 -6.34376038E-02  3.32044348E-01 -4.48016595E-05  8.62426166E-02
  6.39082603E-02  3.31923402E-01  3.39838615E-05 -8.61817901E-02  6.41012315E-02
  3.31793650E-01  4.70176450E-05  8.63474951E-02 -6.36491467E-02  3.31913347E-01
 -5.45623128E-05  9.44883525E-05 -1.41137032E-04  4.44485799E-01  8.17697458E-06
 -6.77331647E-05 -1.28653105E-04 -3.73063695E-02 -6.71493834E-07 -1.69955942E-01
  1.69784417E-01 -1.69638076E-01  1.69807253E-01 -1.39263753E-05  2.49720087E-05
  6.36198665E-03 -1.11233200E-07  3.04432775E-05  1.60162625E-05 -3.61610473E-01
 -5.58860874E-06 -4.41573990E-02  3.95208625E-01 -1.58550719E-01 -6.03601903E-06
  4.41466621E-02 -3.95181286E-01 -1.58603298E-01 -6.02947679E-06  4.41822998E-02
  3.95190093E-01  1.58518986E-01  4.60185419E-06 -4.41790544E-02 -3.95176830E-01
  1.58466675E-01  7.12353688E-06  1.06501264E-05  1.19640051E-05  3.61501219E-01
  5.54079681E-06  5.11812871E-07  2.08918330E-06 -6.36462682E-03  1.04113845E-07
 -3.68755532E-02  3.68396668E-02  3.68921183E-02 -3.69018913E-02 -1.95443528E-01
  3.76155216E-01 -2.42925281E-05 -2.77212712E-05  9.08950223E-02  5.08432759E-01
 -1.60105325E-05 -9.16044830E-06  5.14956519E-02  1.33020880E-02 -1.47795031E-01
  1.71454413E-05  5.14921188E-02  1.33248824E-02  1.47806154E-01  1.67904628E-05
  5.14900760E-02 -1.33204678E-02 -1.47783107E-01 -2.22974985E-05  5.15092932E-02
 -1.33073683E-02  1.47803346E-01 -2.19951041E-05  9.09003476E-02 -5.08415639E-01
  2.54535634E-05  4.01154864E-05 -1.95437613E-01 -3.76139911E-01  1.43121075E-05
  5.79254785E-05  4.58965350E-02  4.58996517E-02  4.58821568E-02  4.58914473E-02
 -1.70363566E-01  3.26162341E-01 -1.84960399E-05 -2.31165416E-05  3.47093830E-02
  4.63495760E-01  8.95365482E-06  5.70488956E-06 -2.73775722E-02  2.52953556E-01
 -8.65994751E-02 -1.51786321E-06 -2.73726047E-02  2.52988857E-01  8.66492307E-02
  7.59415292E-06  2.73716629E-02  2.52971066E-01  8.66313679E-02  6.59417601E-06
  2.73758292E-02  2.52992459E-01 -8.66173319E-02 -2.03924299E-06 -3.47145021E-02
  4.63515628E-01 -1.56481597E-05 -1.83652098E-05  1.70368721E-01  3.26168707E-01
 -1.18451095E-05 -4.91923643E-05 -4.49964163E-02 -4.49838605E-02  4.49899617E-02
  4.49964277E-02
Total SCF Density                          R   N=         666
  1.81626989E+00  3.62836360E-01  1.27954643E+00 -2.65853762E-05  5.24113836E-05
  1.98032718E+00 -2.89747119E-05  4.95654351E-05  1.89828128E-05  1.38569037E+00
  2.28886925E-01 -4.95147666E-01  4.70583534E-05  1.39869287E-04  1.06997984E+00
  3.85512498E-01 -7.31681272E-01  5.24424438E-05  3.93114412E-05 -5.98735677E-02
  9.13796990E-01 -1.91885534E-05  3.73486371E-05  1.09117404E-01 -2.00874549E-05
  2.47160018E-05  6.53346627E-06  9.92663277E-01 -3.22242786E-05  8.46404538E-05
 -2.04534705E-05  8.48178369E-01  3.21709326E-05  4.15978626E-06  6.46783854E-06
  6.99008932E-01  2.01417565E-04  1.80201274E-02 -8.74498525E-02 -1.07292096E-05
  2.94897478E-01 -2.08565566E-01  3.98785314E-01 -3.89558206E-05  1.10277130E+00
 -7.12339232E-03  1.58546540E-02  1.87591338E-03 -2.68986916E-05  2.58303247E-01
 -1.16632209E-01  3.18025698E-01 -1.59576800E-05  2.03793148E-02  9.76820306E-01
 -6.02794013E-03 -2.54067544E-02  3.36862176E-02  3.08519743E-05 -4.33493010E-01
  3.04043492E-01 -4.79074218E-01  5.92463335E-05  5.07311270E-02  9.81129369E-03
  9.56421039E-01 -1.80267941E-07  2.97431832E-06 -1.05964785E-05 -1.14229024E-02
  6.06550219E-05 -2.85290299E-05  5.51574872E-05  2.78970736E-01 -4.61705681E-05
  1.86530581E-05  2.06968117E-05  9.57667733E-01  1.98906212E-04  1.80345465E-02
  8.74490849E-02 -7.92809354E-06  2.94936141E-01 -2.08622838E-01 -3.98818351E-01
 -6.88051148E-05 -1.83529335E-02 -6.70114399E-03  2.74618315E-02 -1.95653355E-06
  1.10275377E+00 -7.11558491E-03  1.58264354E-02 -1.90923002E-03 -2.24398366E-05
  2.58280156E-01 -1.16638040E-01 -3.18003601E-01 -4.11972986E-05 -6.69922383E-03
 -2.65113952E-03  2.51589041E-02 -2.04392122E-06  2.03906848E-02  9.76822742E-01
  6.03168995E-03  2.53985711E-02  3.36619476E-02 -1.58650787E-05  4.33474369E-01
 -3.04074567E-01 -4.79030231E-01 -7.37699113E-05 -2.74558383E-02 -2.51577200E-02
 -6.15480057E-03 -2.46432407E-05 -5.07052890E-02 -9.81688900E-03  9.56431085E-01
  4.08971011E-07 -1.45296094E-06  1.50163361E-06 -1.14125612E-02  6.69281845E-05
 -3.46474223E-05 -6.18359604E-05  2.79006588E-01 -6.18365467E-06 -6.32930382E-06
  1.14941216E-05 -4.23442096E-02 -7.91097874E-05 -6.71388110E-06 -2.80339851E-05
  9.57657050E-01  8.25804468E-03 -3.11171891E-02  4.26853691E-02 -2.85070475E-05
 -1.55556329E-03  8.42966283E-03 -6.67964516E-03  9.74053014E-06  3.25904976E-01
 -4.98396491E-01 -5.47151748E-03  1.30323815E-04 -1.54087049E-02 -1.29033278E-03
 -5.33553032E-04 -2.15191807E-05  1.10279269E+00  1.26685243E-02 -2.65788621E-02
  3.98135406E-02 -4.53711248E-06 -1.26772847E-02 -9.79333570E-03 -8.08189748E-03
  8.09522252E-06  4.98372525E-01 -6.18061705E-01 -8.09414999E-03  6.19832453E-05
  1.28927872E-03 -9.72202771E-03  1.21816171E-02  1.49996607E-06 -2.03780152E-02
  9.76812038E-01 -8.90286132E-03  1.13419077E-02  1.72568717E-03  1.25154879E-05
  9.12690036E-03  2.97237352E-02 -5.31259325E-03 -7.85085242E-06 -5.42709317E-03
  8.01882884E-03  1.04758040E-01 -6.69131713E-05  5.33256252E-04  1.21839581E-02
 -3.02926765E-02  1.40159857E-05  5.07039343E-02 -9.81516044E-03  9.56420996E-01
  2.75680617E-06 -5.06406236E-06 -2.82983265E-06 -2.23542938E-01  2.37261472E-05
 -2.12121568E-05  9.13174810E-06  1.18648227E-01 -9.00266542E-05  9.49434438E-05
  8.38012845E-05  9.20960408E-01  2.14111859E-05  5.43787907E-06  6.99218672E-06
 -7.90377776E-02  6.46474832E-05 -4.62795389E-07 -2.66205003E-05  9.57647961E-01
  8.25800175E-03 -3.11267103E-02 -4.26994543E-02 -1.60431122E-05 -1.55362888E-03
  8.44503326E-03  6.68765309E-03  7.21974856E-06 -1.54064379E-02 -1.28818433E-03
  5.38710945E-04 -5.66026633E-06  3.25899835E-01 -4.98406141E-01  5.42873484E-03
  7.00244984E-05 -1.83538336E-02  6.70289711E-03  2.74577460E-02  9.11504600E-06
  1.10279968E+00  1.26673203E-02 -2.65859960E-02 -3.98215374E-02 -1.72073305E-05
 -1.26743063E-02 -9.77109976E-03  8.08521488E-03  1.82102189E-05  1.28523027E-03
 -9.71776748E-03 -1.21722178E-02 -9.10405522E-06  4.98360476E-01 -6.18065927E-01
  8.02343439E-03  1.09021483E-04  6.70409095E-03 -2.65218764E-03 -2.51625582E-02
 -1.26908648E-05 -2.03644040E-02  9.76815865E-01  8.90115287E-03 -1.13401034E-02
  1.72396928E-03 -3.63733082E-05 -9.12362587E-03 -2.97158464E-02 -5.31457053E-03
  2.18891983E-05 -5.35933064E-04 -1.21770093E-02 -3.02751305E-02 -6.16083996E-06
  5.47399758E-03 -8.09475353E-03  1.04755171E-01  1.29167747E-04 -2.74606034E-02
  2.51621083E-02 -6.16017778E-03  1.61556012E-05 -5.07316120E-02  9.80494925E-03
  9.56416044E-01  4.69838957E-06 -8.55774790E-06  2.77857896E-05 -2.23575279E-01
  3.83584294E-05 -3.20084706E-05 -4.50794883E-05  1.18652631E-01  3.37331147E-06
 -5.67203808E-06  1.11708824E-06 -7.90534587E-02 -1.59830795E-04  4.14155531E-05
 -1.26131562E-05  9.20948301E-01  5.94862331E-06 -8.50950163E-06 -2.82635583E-05
 -4.23463139E-02  3.86294935E-05  2.77050812E-05  1.77454478E-05  9.57646156E-01
  5.72275201E-03 -1.51887120E-02  3.52893640E-06  2.41661875E-05 -4.78621605E-02
  1.74506239E-02  4.97153165E-07  9.50173746E-06 -1.55657781E-03  1.26859823E-02
  9.13368062E-03 -3.64018799E-05 -1.55533567E-03  1.26857424E-02 -9.13635392E-03
 -2.34341068E-05  2.94910398E-01 -2.58279309E-01 -4.33465804E-01 -8.32275588E-05
  2.94894261E-01 -2.58319073E-01  4.33479988E-01 -7.90658316E-05  1.07000093E+00
  7.00854883E-03 -7.90755463E-03  1.17255791E-06  6.62490959E-06 -1.74528229E-02
 -1.83583196E-02 -1.75754616E-06 -6.54294260E-07 -8.44319502E-03 -9.76152570E-03
 -2.97031844E-02 -1.93013454E-05 -8.42930662E-03 -9.78443684E-03  2.97118374E-02
 -8.71035680E-06  2.08611708E-01 -1.16653581E-01 -3.04076081E-01 -3.02531666E-05
  2.08581853E-01 -1.16661316E-01  3.04061573E-01 -2.58116417E-05  5.98705089E-02
  9.13788018E-01  1.32669906E-06 -4.41344764E-06 -1.09507384E-02  1.19274562E-05
 -5.20756966E-06  1.25794729E-07 -2.13668183E-02 -5.41733734E-06 -6.68939225E-03
  8.10009444E-03 -5.30400769E-03 -2.94946731E-05  6.67903562E-03 -8.09286778E-03
 -5.30081085E-03 -4.90006424E-06  3.98805156E-01 -3.18016410E-01 -4.79047273E-01
 -7.36671655E-05 -3.98778577E-01  3.18045741E-01 -4.79045180E-01  6.76999199E-05
 -1.43302769E-05  3.72209067E-07  9.92666571E-01  3.86706057E-06 -9.08636788E-06
  5.11428740E-06 -7.85561260E-02 -8.38469147E-06 -2.24152917E-06 -6.06065414E-06
 -1.43060245E-03 -6.63610994E-06  8.00471280E-06  1.46173814E-05  1.18632901E-01
 -1.02669417E-05 -2.87411005E-06  1.54691669E-06  1.18645734E-01  6.05938541E-05
 -3.03897287E-05 -8.09073664E-05  2.78960683E-01  3.27335263E-05 -5.64093709E-06
  6.35964407E-05  2.78967661E-01 -4.73463171E-05 -1.08695938E-05  7.32381342E-06
  6.98999216E-01  1.68810398E-05  2.83165372E-03 -3.41809183E-07  1.44425838E-06
  5.72245783E-03 -7.00843239E-03 -6.56251429E-07 -3.44051141E-06  8.25527044E-03
 -1.26648913E-02 -8.90061899E-03 -5.38044406E-06  8.25644722E-03 -1.26678020E-02
  8.90231649E-03 -3.35225128E-06  1.98101060E-04  7.11804234E-03 -6.02960436E-03
 -1.03793695E-07  2.01418619E-04  7.12383721E-03  6.02858823E-03  7.95062273E-07
  2.28893283E-01 -3.85510500E-01  1.18582099E-05  6.34579733E-05  1.81626814E+00
 -2.83173026E-03  1.16425998E-02 -7.58492157E-07  1.78802686E-05  1.51893602E-02
 -7.90795173E-03 -1.67363451E-06 -1.62080707E-05  3.11173073E-02 -2.65836841E-02
 -1.13429774E-02 -3.00518057E-05  3.11138411E-02 -2.65817266E-02  1.13441735E-02
 -2.70656390E-05 -1.80401432E-02  1.58379687E-02  2.54132385E-02  5.83621994E-06
 -1.80259107E-02  1.58584922E-02 -2.54154783E-02  1.18853861E-05  4.95170071E-01
 -7.31666177E-01  2.51001813E-05  2.07004962E-04 -3.62838698E-01  1.27954248E+00
 -6.48477022E-08  7.09369358E-07  9.85290039E-03 -9.45667548E-06 -8.20920574E-07
 -4.52233935E-07 -1.09472744E-02  5.06342737E-06  4.26914563E-02 -3.98227308E-02
  1.72124075E-03  1.55000987E-05 -4.26803630E-02  3.98163440E-02  1.72246264E-03
  9.87318266E-06 -8.74603344E-02 -1.88409643E-03  3.36787798E-02  1.20627345E-05
  8.74536284E-02  1.86479881E-03  3.36852080E-02 -2.23090153E-05 -2.32508062E-05
  3.62556181E-05  1.09142652E-01 -2.14538788E-05  1.62281220E-05  3.12991364E-05
  1.98032278E+00 -1.07161286E-06  1.20379198E-06 -9.36996794E-06  1.59521844E-01
 -2.82101319E-05  1.70743023E-05  1.26649111E-05 -7.85529061E-02  1.86065075E-05
 -7.63067021E-06 -2.16189166E-05 -2.23536265E-01  3.33387015E-05  7.03743410E-06
 -5.48880109E-06 -2.23538599E-01  1.39596608E-05 -3.48089853E-05 -2.93746700E-05
 -1.14059581E-02  1.60466326E-05 -4.08130388E-05  4.43069811E-05 -1.14171195E-02
 -2.05095860E-04  1.48494294E-04 -2.05586189E-05  8.48193819E-01  5.87356843E-05
  6.29272769E-05  1.98061118E-05  1.38568247E+00 -3.59174187E-03  1.92861499E-02
  3.14029567E-02  1.40343094E-06 -1.85830214E-02  1.63698677E-02 -4.81290113E-02
 -1.54201488E-06  5.72454752E-01  4.25325842E-01  6.83347295E-01 -3.89815259E-05
  4.08900744E-02  9.04305360E-03  4.45296968E-02  6.29017933E-06 -2.50185985E-02
 -4.47184429E-02 -4.85166643E-03  1.58706013E-05  3.09902093E-03  5.46594926E-03
  2.89964292E-03  5.36567298E-06  5.79467443E-02  3.52315042E-02  4.01178611E-02
  9.17418709E-06 -8.31672001E-03 -3.49473255E-02 -1.53426566E-02  1.62059521E-06
  9.37670786E-01 -3.59243046E-03  1.92885063E-02 -3.13996345E-02 -1.46049257E-05
 -1.85830990E-02  1.63712918E-02  4.81335729E-02  2.23363921E-05  4.08929459E-02
  9.04525911E-03 -4.45381742E-02  7.21423162E-07  5.72409376E-01  4.25334420E-01
 -6.83381051E-01  8.80496576E-05  3.10522924E-03  5.46686588E-03 -2.90390001E-03
 -1.65371919E-05 -2.50076705E-02 -4.46982346E-02  4.83986432E-03  4.69633903E-05
  5.79618831E-02  3.52317533E-02 -4.01145491E-02  1.30886858E-06 -8.31983206E-03
 -3.49543131E-02  1.53378750E-02  2.08548675E-06 -3.84534394E-02  9.37692317E-01
 -8.32118471E-03  3.49598017E-02 -1.53439440E-02  6.62227536E-07  5.79648261E-02
 -3.52335722E-02  4.01187760E-02 -4.37444000E-06 -2.50150277E-02  4.47227273E-02
 -4.85819672E-03 -3.23274593E-05  3.10549238E-03 -5.46605052E-03  2.90392126E-03
  2.01292301E-05  5.72392629E-01 -4.25369101E-01  6.83370584E-01 -1.36175918E-05
  4.08924998E-02 -9.04674280E-03  4.45349780E-02 -2.30851114E-06 -1.85857686E-02
 -1.63733361E-02 -4.81389118E-02 -1.43606040E-05 -3.58997190E-03 -1.92841742E-02
  3.14065373E-02  1.12189030E-05 -2.24004439E-02 -9.79408469E-03  9.37700832E-01
 -8.31809119E-03  3.49547146E-02  1.53460244E-02  1.71797161E-06  5.79489052E-02
 -3.52355978E-02 -4.01173971E-02 -1.15940910E-05  3.09906425E-03 -5.46414708E-03
 -2.90016178E-03  2.50535148E-08 -2.50226783E-02  4.47409762E-02  4.87089346E-03
 -6.55729859E-06  4.08939722E-02 -9.04695074E-03 -4.45352099E-02 -7.36842271E-06
  5.72422484E-01 -4.25332385E-01 -6.83367403E-01  9.71305379E-05 -1.85845715E-02
 -1.63724696E-02  4.81347050E-02  7.70769024E-06 -3.59052603E-03 -1.92855721E-02
 -3.14080922E-02 -3.85710439E-06 -9.78272745E-03 -2.24017679E-02 -3.84578535E-02
  9.37686105E-01
Total CI Rho(1) Density                    R   N=         666
  1.81626986E+00  3.62835760E-01  1.27953967E+00 -2.51944088E-05  2.34296301E-05
  1.59191548E+00 -2.11861175E-05  3.30898219E-05 -1.38624426E-05  1.55417253E+00
  2.28885280E-01 -4.95164447E-01  5.05814522E-05  6.03568906E-05  1.06993902E+00
  3.85513831E-01 -7.31666181E-01  5.88888458E-05  5.83071215E-05 -5.98360562E-02
  9.13763293E-01 -1.95452097E-05  4.56856882E-05  2.20831781E-01 -7.65478198E-06
  2.36271828E-05  4.65578917E-06  9.59535917E-01 -4.13739035E-05  1.04001250E-04
 -1.54435900E-05  6.56850638E-01  1.23838267E-04 -1.73285855E-05  1.42691768E-06
  9.23222972E-01  2.01677567E-04  1.80274481E-02 -3.31125347E-02  3.52759244E-05
  2.94904280E-01 -2.08573820E-01  3.82632889E-01 -8.88780410E-05  1.09479184E+00
 -7.12327301E-03  1.58581218E-02  3.03052579E-02 -8.11562702E-06  2.58305648E-01
 -1.16635685E-01  3.10593942E-01 -3.34773139E-05  1.69457883E-02  9.73956252E-01
 -6.02615513E-03 -2.53932146E-02 -5.62577361E-02 -7.26693119E-06 -4.33440222E-01
  3.03999858E-01 -4.52214157E-01  9.54129956E-05  6.38445349E-02  1.56170266E-02
  9.34546366E-01 -3.10290847E-06  9.07259055E-06 -3.28805784E-05 -8.61653992E-02
  9.33462610E-05 -3.69592136E-05  6.10725561E-05  3.51831465E-01 -5.77434889E-05
  1.08539297E-05  2.82382265E-05  1.01176243E+00  1.99515289E-04  1.80337580E-02
  3.31047436E-02  2.78925141E-05  2.94943974E-01 -2.08629243E-01 -3.82664049E-01
 -1.14330879E-04 -1.03742796E-02 -3.26689733E-03  1.43243480E-02 -2.21557434E-05
  1.09477258E+00 -7.11520533E-03  1.58256583E-02 -3.03399973E-02 -5.18452503E-06
  2.58283004E-01 -1.16640634E-01 -3.10571464E-01 -6.25162988E-05 -3.26544617E-03
  2.13681210E-04  1.93420773E-02 -1.37601135E-05  1.69562712E-02  9.73958513E-01
  6.03046393E-03  2.53716068E-02 -5.62698273E-02  8.01149069E-07  4.33423354E-01
 -3.04027895E-01 -4.52173661E-01 -1.00643711E-04 -1.43215011E-02 -1.93421361E-02
 -2.79114204E-02 -4.02523722E-05 -6.38185032E-02 -1.56219923E-02  9.34562013E-01
 -2.51636182E-06  4.66057248E-06  4.94296534E-05 -8.61471960E-02  9.96499554E-05
 -4.30946393E-05 -7.81568689E-05  3.51850280E-01 -2.88421846E-05 -1.74628404E-05
  3.73124648E-05  1.14803131E-02 -8.83054292E-05 -1.51066755E-05 -2.53474660E-05
  1.01177273E+00  8.25798973E-03 -3.11243602E-02 -7.90028988E-05 -2.11113483E-05
 -1.56611925E-03  8.43928101E-03  7.15480430E-03  5.43864873E-06  3.32996092E-01
 -4.96857424E-01 -1.69521517E-02  1.10281114E-04 -2.24943000E-02 -2.82608935E-03
 -1.20325204E-02 -3.00898812E-05  1.09484440E+00  1.26685813E-02 -2.65766828E-02
  4.31297052E-02 -2.39397362E-05 -1.26717109E-02 -9.79772912E-03 -1.04728580E-02
  2.62002088E-05  4.96877577E-01 -6.16823653E-01 -5.84503887E-03  7.76533111E-05
  2.78047682E-03 -1.09622852E-02  1.44389855E-02  1.31258419E-05 -1.69989530E-02
  9.73980555E-01 -8.90469906E-03  1.13272799E-02  7.03397107E-02 -3.21278533E-06
  9.07682459E-03  2.97665771E-02 -2.78970000E-02  8.36683454E-06 -1.68980173E-02
  5.70309259E-03  1.23617836E-01 -4.12126603E-05  1.20244495E-02  1.45082617E-02
 -1.15522569E-02  2.07821942E-05  6.37592949E-02 -1.55318333E-02  9.34652293E-01
  7.08755271E-06 -1.42263160E-05 -3.24864140E-05 -1.28341899E-01 -2.08101577E-05
 -1.05132679E-05  2.09055210E-05  1.13064054E-02 -6.15078040E-05  1.04395677E-04
  5.81299633E-05  8.77177484E-01  3.85624847E-05  1.63472895E-05  1.20068537E-05
 -1.22518243E-01  6.42700061E-05 -7.80934797E-06 -2.75724709E-05  1.01200761E+00
  8.25775716E-03 -3.11275078E-02  6.51884536E-05 -3.75919812E-06 -1.56511266E-03
  8.45311761E-03 -7.14650974E-03  1.40812293E-06 -2.24913813E-02 -2.82413011E-03
  1.20386328E-02 -1.55285927E-05  3.32991182E-01 -4.96866508E-01  1.69077893E-02
  4.87584957E-05 -1.04079186E-02  3.32446613E-03  1.43809911E-02  2.16506701E-05
  1.09485278E+00  1.26672913E-02 -2.65843090E-02 -4.31335785E-02 -2.89482699E-05
 -1.26685422E-02 -9.77526641E-03  1.04752025E-02  3.01185813E-05  2.77622666E-03
 -1.09585410E-02 -1.44288681E-02 -1.74333056E-06  4.96866234E-01 -6.16827436E-01
  5.77508818E-03  1.20422357E-04  3.32507657E-03  1.80283043E-04 -1.94351970E-02
 -2.31962770E-05 -1.69861076E-02  9.73983775E-01  8.90272707E-03 -1.13152273E-02
  7.03376793E-02 -5.63257889E-06 -9.07508114E-03 -2.97611920E-02 -2.78990011E-02
 -5.17361793E-06 -1.20265107E-02 -1.45008762E-02 -1.15326637E-02 -1.71099352E-05
  1.69456674E-02 -5.77892815E-03  1.23613024E-01  9.92602523E-05 -1.43823775E-02
  1.94343849E-02 -2.78140695E-02  4.22591510E-05 -6.37860188E-02  1.55218269E-02
  9.34646396E-01  9.03179452E-06 -1.77249857E-05  5.37356308E-05 -1.28380011E-01
 -6.20986519E-06 -2.12960212E-05 -5.06455304E-05  1.13246641E-02  2.32937883E-05
  8.87443779E-07 -1.02663087E-05 -1.22547650E-01 -1.33994612E-04  5.52320604E-05
  6.67054648E-06  8.77159089E-01  1.40526417E-05 -1.85763008E-05 -4.33253411E-05
  1.17300498E-02  4.26119364E-05  1.99204409E-05  2.97582133E-05  1.01200058E+00
  5.72390440E-03 -1.51706922E-02  4.05328464E-06 -1.90175896E-05 -4.78149460E-02
  1.74104896E-02  2.51339281E-07  4.56439185E-05 -1.56773827E-03  1.26803579E-02
  9.08459179E-03  5.10930167E-06 -1.56621980E-03  1.26800090E-02 -9.08682346E-03
  1.80536709E-05  2.94917964E-01 -2.58282102E-01 -4.33414321E-01 -1.08593798E-04
  2.94901350E-01 -2.58321509E-01  4.33427644E-01 -1.04410263E-04  1.06996009E+00
  7.00968128E-03 -7.89195027E-03 -3.58938093E-06  6.10461080E-06 -1.74126785E-02
 -1.83931062E-02 -3.71947709E-07 -6.95862732E-07 -8.45138421E-03 -9.76546100E-03
 -2.97484092E-02 -1.78578216E-05 -8.43881959E-03 -9.78907952E-03  2.97548320E-02
 -7.28153734E-06  2.08618528E-01 -1.16656578E-01 -3.04030073E-01 -3.05914209E-05
  2.08589714E-01 -1.16664378E-01  3.04017228E-01 -2.61348045E-05  5.98329695E-02
  9.13754289E-01  1.47353304E-06 -1.04894270E-05 -9.23218200E-02  4.70860070E-06
 -4.28837987E-06  1.62032799E-06  5.67526397E-03 -8.63673758E-07  7.12160077E-03
  1.05686437E-02 -2.78698767E-02 -3.88761465E-05 -7.13270481E-03 -1.05617364E-02
 -2.78643264E-02  8.77376398E-06  3.82735372E-01 -3.10697328E-01 -4.52335348E-01
 -8.84356737E-05 -3.82710358E-01  3.10726690E-01 -4.52332643E-01  7.01186609E-05
 -1.37887334E-05 -6.12630519E-07  9.59742942E-01  8.39658342E-06 -1.85347614E-05
  1.10152671E-06  4.57777795E-02 -6.15343926E-05  1.20643367E-05 -1.47943779E-06
 -1.12718423E-01  1.85054408E-05  2.23995747E-05 -1.02888629E-05  1.19515448E-02
  1.46347431E-05  1.88485026E-05  1.43760764E-05  1.19348735E-02  9.25955055E-05
 -5.52487479E-05 -1.14518049E-04  3.51637789E-01  6.88804589E-05 -2.77083332E-05
  1.05337853E-04  3.51672278E-01 -1.36104087E-04 -1.42076817E-05  2.31371031E-06
  9.21695423E-01  1.69446384E-05  2.83216419E-03 -8.57055506E-07  4.39273781E-06
  5.72362454E-03 -7.00957635E-03 -6.17646073E-07 -5.41497115E-06  8.25510111E-03
 -1.26647407E-02 -8.90234440E-03 -9.04971245E-06  8.25631195E-03 -1.26679841E-02
  8.90403399E-03 -7.01983564E-06  1.98741805E-04  7.11755416E-03 -6.02842326E-03
  1.65868341E-06  2.01651778E-04  7.12382453E-03  6.02672552E-03  2.55547825E-06
  2.28891625E-01 -3.85511845E-01  1.23090879E-05  7.16891550E-05  1.81626812E+00
 -2.83223643E-03  1.16355952E-02  1.26590556E-05  1.22769603E-05  1.51713245E-02
 -7.89233460E-03 -5.98924614E-06 -8.57856791E-06  3.11191005E-02 -2.65822738E-02
 -1.13196233E-02 -2.97909369E-05  3.11200199E-02 -2.65792620E-02  1.13279711E-02
 -2.67986288E-05 -1.80410131E-02  1.58383372E-02  2.53890029E-02  2.72513798E-06
 -1.80315925E-02  1.58608140E-02 -2.53991558E-02  8.76188665E-06  4.95186883E-01
 -7.31651057E-01  2.99558852E-05  2.08615159E-04 -3.62838092E-01  1.27953570E+00
 -4.07717428E-07  1.83211947E-05  2.46299758E-01 -1.15408850E-06 -3.61111226E-06
 -4.87935848E-06 -9.22008387E-02 -3.76420071E-08  6.68334081E-05 -4.33779397E-02
  7.01779158E-02  5.58610285E-05 -5.43312226E-05  4.33726899E-02  7.01723901E-02
 -2.43351000E-05 -3.34647811E-02 -2.99149519E-02 -5.56690814E-02  5.73859510E-05
  3.34641665E-02  2.98962742E-02 -5.56650224E-02 -3.16455582E-05 -2.51410821E-05
  3.91119694E-05  2.20052928E-01 -1.70585017E-05  1.42922240E-05  1.51196601E-05
  1.59502861E+00 -6.13251478E-06  1.17883443E-05  6.34892951E-06  3.06292110E-02
  2.84594078E-05  2.39507665E-06  3.79950935E-06  4.60424622E-02 -1.21158412E-05
 -2.08816295E-05  7.75341076E-06 -1.28809222E-01  9.09963611E-06 -1.41262018E-05
 -1.61344585E-05 -1.28791930E-01 -6.68898542E-06 -1.58419861E-05 -8.18420460E-06
 -8.61217042E-02 -1.73111173E-05 -1.86265176E-05  2.63990730E-07 -8.61515303E-02
 -1.30739690E-04  1.51083348E-04 -6.54983189E-06  6.58028081E-01  5.20921636E-05
  6.30374998E-05 -2.07597582E-05  1.55332008E+00 -3.59033088E-03  1.92997181E-02
 -1.63659801E-02 -1.96652745E-05 -1.85386880E-02  1.63324944E-02 -3.32178197E-02
  2.05629333E-05  5.79833612E-01  4.27807777E-01  6.71053112E-01 -3.79419455E-05
  3.34915875E-02  6.55196773E-03  3.23347863E-02  1.85100794E-05 -3.23373551E-02
 -4.23832815E-02  7.32548964E-03  6.11553129E-07  1.04341313E-02  3.12386152E-03
  1.49775844E-02 -1.35275911E-06  5.79049790E-02  3.51934606E-02  2.53789648E-02
  6.49384864E-07 -8.31807328E-03 -3.49282785E-02  3.15874356E-02  1.52400299E-05
  9.30297327E-01 -3.59126427E-03  1.93092043E-02  1.63590032E-02 -2.17129256E-05
 -1.85397797E-02  1.63322593E-02  3.32252937E-02  3.45350016E-05  3.34965204E-02
  6.55514498E-03 -3.23441359E-02  8.39932882E-06  5.79787497E-01  4.27815710E-01
 -6.71090657E-01  8.45895922E-05  1.04397488E-02  3.12451700E-03 -1.49800957E-02
 -1.67710933E-05 -3.23249460E-02 -4.23633053E-02 -7.33582390E-03  3.81452953E-05
  5.79197387E-02  3.51948957E-02 -2.53775423E-02 -1.74405721E-06 -8.32137180E-03
 -3.49397728E-02 -3.15868181E-02  3.37156822E-06 -3.11641719E-02  9.30321247E-01
 -8.32273525E-03  3.49465546E-02  3.18267136E-02  8.03077009E-06  5.79223755E-02
 -3.51969678E-02  2.53247455E-02 -1.17163951E-05 -3.23509095E-02  4.23406467E-02
  7.35507400E-03 -2.60931380E-05  1.04588026E-02 -3.07661410E-03  1.50164380E-02
  1.51357089E-05  5.79760307E-01 -4.27806055E-01  6.71102576E-01 -5.94690697E-06
  3.35063301E-02 -6.60105129E-03  3.23646320E-02 -3.15696322E-06 -1.85421475E-02
 -1.63345396E-02 -3.32707552E-02 -1.90953760E-05 -3.58877283E-03 -1.93035914E-02
 -1.61599651E-02  1.02087220E-05 -1.50259185E-02 -1.70833528E-02  9.30321365E-01
 -8.31940586E-03  3.49344177E-02 -3.18287613E-02 -2.36419790E-06  5.79074414E-02
 -3.51973311E-02 -2.53219736E-02 -1.29774652E-05  1.04524907E-02 -3.07481311E-03
 -1.50152673E-02  6.95373202E-07 -3.23599437E-02  4.23586768E-02 -7.34213782E-03
  5.30770678E-06  3.35063882E-02 -6.60053454E-03 -3.23634638E-02 -1.36413572E-05
  5.79790622E-01 -4.27769605E-01 -6.71097648E-01  9.94151717E-05 -1.85405373E-02
 -1.63348260E-02  3.32645971E-02 -6.57026189E-06 -3.58911979E-03 -1.93004653E-02
  1.61651163E-02  1.00996377E-05 -1.70739577E-02 -1.50275916E-02 -3.11605555E-02
  9.30304963E-01
Mulliken Charges                           R   N=          12
 -4.61833863E-01  3.24550961E-01  6.31962219E-03  6.33535425E-03  6.32631209E-03
  6.32225799E-03  3.24545268E-01 -4.61815873E-01  6.23292139E-02  6.23076831E-02
  6.22991681E-02  6.23138951E-02
ONIOM Charges                              I   N=          16
           0           0           0           0           0           0
           0           0           0           0           0           0
           0           0           0           0
ONIOM Multiplicities                       I   N=          16
           1           0           0           0           0           0
           0           0           0           0           0           0
           0           0           0           0
Atom Layers                                I   N=          12
           1           1           1           1           1           1
           1           1           1           1           1           1
Atom Modifiers                             I   N=          12
           0           0           0           0           0           0
           0           0           0           0           0           0
Force Field                                I                0
Int Atom Modified Types                    I   N=          12
           0           0           0           0           0           0
           0           0           0           0           0           0
Link Atoms                                 I   N=          12
           0           0           0           0           0           0
           0           0           0           0           0           0
Atom Modified MM Charges                   R   N=          12
  0.00000000E+00  0.00000000E+00  0.00000000E+00  0.00000000E+00  0.00000000E+00
  0.00000000E+00  0.00000000E+00  0.00000000E+00  0.00000000E+00  0.00000000E+00
  0.00000000E+00  0.00000000E+00
Link Distances                             R   N=          48
  0.00000000E+00  0.00000000E+00  0.00000000E+00  0.00000000E+00  0.00000000E+00
  0.00000000E+00  0.00000000E+00  0.00000000E+00  0.00000000E+00  0.00000000E+00
  0.00000000E+00  0.00000000E+00  0.00000000E+00  0.00000000E+00  0.00000000E+00
  0.00000000E+00  0.00000000E+00  0.00000000E+00  0.00000000E+00  0.00000000E+00
  0.00000000E+00  0.00000000E+00  0.00000000E+00  0.00000000E+00  0.00000000E+00
  0.00000000E+00  0.00000000E+00  0.00000000E+00  0.00000000E+00  0.00000000E+00
  0.00000000E+00  0.00000000E+00  0.00000000E+00  0.00000000E+00  0.00000000E+00
  0.00000000E+00  0.00000000E+00  0.00000000E+00  0.00000000E+00  0.00000000E+00
  0.00000000E+00  0.00000000E+00  0.00000000E+00  0.00000000E+00  0.00000000E+00
  0.00000000E+00  0.00000000E+00  0.00000000E+00
Cartesian Gradient                         R   N=          36
  0.00000000E+00  0.00000000E+00  0.00000000E+00  0.00000000E+00  0.00000000E+00
  0.00000000E+00  0.00000000E+00  0.00000000E+00  0.00000000E+00  0.00000000E+00
  0.00000000E+00  0.00000000E+00  0.00000000E+00  0.00000000E+00  0.00000000E+00
  0.00000000E+00  0.00000000E+00  0.00000000E+00  0.00000000E+00  0.00000000E+00
  0.00000000E+00  0.00000000E+00  0.00000000E+00  0.00000000E+00  0.00000000E+00
  0.00000000E+00  0.00000000E+00  0.00000000E+00  0.00000000E+00  0.00000000E+00
  0.00000000E+00  0.00000000E+00  0.00000000E+00  0.00000000E+00  0.00000000E+00
  0.00000000E+00
ETran NETS                                 I               20
ETran NETV                                 I              160
ETran scalars                              I   N=          20
          10          16           1          10           1           0
           0           0           0           0           0           0
           0           0           0           0           0           0
           0           0
ETran spin                                 I   N=          10
           0           0           0           0           0           0
           0           0           0           0
ETran sym                                  I   N=          10
           0           0           0           0           0           0
           0           0           0           0
ETran state values                         R   N=         160
 -6.00619512E+01  1.68672204E-05  3.13335298E-05  2.40792550E-06 -2.32956187E-06
 -3.52672793E-06 -2.17500768E-06  9.70668398E-01 -7.55965192E-05 -9.98976940E-05
  2.36361709E-04 -2.77163312E-05 -1.30368942E-05 -1.51565204E-04 -1.08398949E-05
  2.89711760E-02 -6.00606658E+01 -4.37645738E-06  1.18790684E-04 -6.26005634E-06
  5.39636291E-06 -7.05319163E-05 -1.69188393E-06 -2.06863354E-03 -1.27541754E-05
  1.41579943E-05 -2.43176801E-04  6.07109823E-05  1.39079343E-05 -7.74445372E-05
 -1.19031404E-06 -8.77595317E-05 -6.00020727E+01 -1.38789574E-04 -5.93331569E-05
  1.43593013E-05  1.67036604E-05  1.21118148E-05 -1.76383000E-06 -2.81531753E-04
 -6.55307694E-06  1.08910210E+00  3.15706088E-04  3.85790946E-05 -5.32187918E-06
 -2.14875287E-01 -1.46809009E-06  1.76331943E-05 -5.99696795E+01 -2.70513352E+00
  1.90406865E-05  2.52532690E-04  1.88338086E-01  1.18739250E-06 -9.33211309E-06
  8.61528891E-06 -5.50834237E-05  2.97859669E-05  1.18822542E-04 -4.39876457E-05
 -5.19677905E-06 -2.52570645E-05  1.66602502E-05 -2.89845156E-06 -5.99379486E+01
  6.38758612E-05 -5.58936702E-06 -2.25800604E-06 -2.02389037E-05 -6.87826720E-06
  2.71969216E-07 -1.11782242E+00 -7.53207311E-05 -2.11687602E-04 -2.14646239E-04
  1.53056519E-04  1.71786245E-05  1.40681138E-04 -5.13907625E-05  1.26210601E-01
 -5.99282901E+01 -1.28158876E-03  2.02909954E-04  1.47872856E-01  1.58004644E-04
 -7.29936488E-05 -5.86137554E-02  1.78086040E-05  1.12672268E-04 -2.73058586E-05
 -3.80029256E-05  1.33345095E-05  8.32729667E-06  1.81916593E-05 -1.07572143E-05
 -8.05533683E-06 -5.99272189E+01  1.48273596E-04  5.15404460E-04  5.38310892E-04
 -3.37989865E-05 -5.05848117E-05 -1.80853261E-04 -1.54076384E-05  4.39953198E-05
 -1.10616328E-04  1.78374738E-05 -6.76255820E-06 -7.84027910E-07 -1.17563265E-05
 -1.15675788E-05  2.59105789E-05 -5.99163652E+01 -1.91827781E-04 -3.66304162E-06
 -1.24568334E-05  1.00793694E-05  1.42586002E-06  2.16302129E-06 -5.97112292E-05
  4.42656216E-01 -8.65995708E-04  5.40278597E-05  2.64550815E-05 -1.62113956E-05
  2.84069350E-04  1.86055080E-01  1.07091094E-04 -5.99144914E+01 -1.67450727E-04
 -4.49052762E-06  4.08308516E-05  3.33692384E-05  3.22812645E-06 -4.78041391E-06
  1.16754876E-04  2.02798908E-04  7.88276151E-01  2.82265288E-04 -1.05454920E-04
 -2.06908059E-05 -3.83306033E-01  1.12946947E-04  8.25925535E-05 -5.99044452E+01
  1.07828477E-03  7.69795303E-01  4.70956314E-05 -1.11132799E-04 -9.17326685E-02
 -1.26840762E-05  2.55237428E-05 -3.94389947E-06 -1.00151437E-04 -2.36850255E-04
  6.49558341E-05  1.28771243E-05 -1.03748104E-04 -5.34879101E-06 -4.60899689E-06
